%time,field.x,field.y,field.z
1607254254941971063,-8.49747467041,-5.21245479584,1.57491636276
1607254254946640014,-8.4978723526,-5.21229076385,1.5747885704
1607254254952564954,-8.49829387665,-5.21212816238,1.57464635372
1607254254956163883,-8.49951076508,-5.21200180054,1.57542848587
1607254254968233108,-8.49999046326,-5.21186113358,1.57532465458
1607254254968393087,-8.50047206879,-5.21171045303,1.57521879673
1607254254971230983,-8.50098419189,-5.21157598495,1.57511723042
1607254254980238914,-8.50151634216,-5.21144723892,1.5750181675
1607254254981668949,-8.5020608902,-5.21130847931,1.57491564751
1607254255005270004,-8.50262546539,-5.21117782593,1.57481360435
1607254255005646944,-8.50320720673,-5.21104812622,1.57471013069
1607254255005759000,-8.50209999084,-5.21188640594,1.57527244091
1607254255005852937,-8.50267028809,-5.21176767349,1.57515525818
1607254255019471883,-8.50325965881,-5.21164703369,1.57503426075
1607254255019793987,-8.5038728714,-5.21153688431,1.57490682602
1607254255020036935,-8.50449848175,-5.21142339706,1.57477462292
1607254255021186113,-8.50513935089,-5.21131277084,1.57463729382
1607254255033263921,-8.50556945801,-5.21131229401,1.57505226135
1607254255033571958,-8.50624275208,-5.21121406555,1.57491266727
1607254255036164999,-8.50693321228,-5.21111726761,1.57476472855
1607254255044576883,-8.5076417923,-5.21102237701,1.57461249828
1607254255046191930,-8.50837135315,-5.210916996,1.57445752621
1607254255051115989,-8.50912189484,-5.2108168602,1.57429516315
1607254255056037902,-8.50989437103,-5.21071624756,1.57412707806
1607254255063030004,-8.50896549225,-5.21104240417,1.57465684414
1607254255066174030,-8.50973701477,-5.21095180511,1.57450592518
1607254255071448087,-8.5105266571,-5.21086168289,1.57435071468
1607254255076921939,-8.51137828827,-5.21076250076,1.57411241531
1607254255081167936,-8.51221942902,-5.21066999435,1.57392144203
1607254255086276054,-8.5130815506,-5.21057796478,1.57372546196
1607254255096430063,-8.51314640045,-5.21038579941,1.57451272011
1607254255096736907,-8.51405715942,-5.2102804184,1.57429516315
1607254255101337909,-8.51498985291,-5.2101726532,1.57406461239
1607254255110532999,-8.5159444809,-5.21006298065,1.57381045818
1607254255111253023,-8.5169172287,-5.20995187759,1.57354986668
1607254255116086959,-8.51791000366,-5.20983934402,1.57327544689
1607254255121248006,-8.51892471313,-5.20972776413,1.57299876213
1607254255128912925,-8.51838493347,-5.20989894867,1.5739222765
1607254255131097078,-8.51943016052,-5.20979166031,1.57365322113
1607254255136233091,-8.52050018311,-5.20968341827,1.57337367535
1607254255144140005,-8.52158164978,-5.20956993103,1.57309997082
1607254255146156072,-8.52268886566,-5.20945692062,1.57280373573
1607254255151226997,-8.52381801605,-5.20934152603,1.57249760628
1607254255156759977,-8.52495956421,-5.20922422409,1.57217931747
1607254255175889015,-8.52557945251,-5.20841932297,1.57275879383
1607254255176239967,-8.52675056458,-5.20827770233,1.57243347168
1607254255176350116,-8.52794647217,-5.208132267,1.5721000433
1607254255185507059,-8.52915859222,-5.20798635483,1.5717561245
1607254255185811042,-8.53039169312,-5.20783805847,1.57140100002
1607254255186070919,-8.53163719177,-5.20769166946,1.57103145123
1607254255196270942,-8.53365898132,-5.20812702179,1.57059013844
1607254255197320938,-8.53495883942,-5.20799255371,1.57020485401
1607254255201215982,-8.53627109528,-5.20786333084,1.56980288029
1607254255209609031,-8.53760623932,-5.20772981644,1.56939041615
1607254255211210966,-8.5389585495,-5.20759630203,1.5689637661
1607254255216183900,-8.54033946991,-5.20746278763,1.56851100922
1607254255221185922,-8.54173946381,-5.2073302269,1.56805145741
1607254255228941917,-8.54258728027,-5.20796108246,1.568354249
1607254255231129884,-8.54403400421,-5.20784425735,1.56787359715
1607254255236119985,-8.54550933838,-5.20773267746,1.56739735603
1607254255243151903,-8.54700279236,-5.20761919022,1.56689894199
1607254255245985031,-8.5485200882,-5.20750665665,1.56638836861
1607254255251415967,-8.55006313324,-5.20739173889,1.56586945057
1607254255256335973,-8.5500125885,-5.20793533325,1.56598770618
1607254255262207984,-8.55157375336,-5.20783805847,1.56547617912
1607254255266236066,-8.55316352844,-5.20773124695,1.56496620178
1607254255271233081,-8.55477714539,-5.20762825012,1.56443893909
1607254255276894092,-8.55641460419,-5.20752429962,1.56390225887
1607254255281136989,-8.55808925629,-5.20742034912,1.56335103512
1607254255286026954,-8.55978775024,-5.20731496811,1.5627938509
1607254255295345067,-8.56151580811,-5.20720863342,1.5622279644
1607254255296011924,-8.5614862442,-5.20753669739,1.5631172657
1607254255301136970,-8.56325817108,-5.20743227005,1.56256055832
1607254255309478998,-8.56505775452,-5.20732736588,1.56199705601
1607254255311243057,-8.56688594818,-5.20721912384,1.561439991
1607254255316077947,-8.56874752045,-5.20710945129,1.56087219715
1607254255321235895,-8.57064437866,-5.20699691772,1.56029975414
1607254255329411983,-8.57232379913,-5.20711326599,1.56125092506
1607254255331000089,-8.57429504395,-5.20699214935,1.56073737144
1607254255336018085,-8.57630157471,-5.20687055588,1.56020963192
1607254255343502044,-8.57834148407,-5.20674467087,1.55968248844
1607254255346324920,-8.58043575287,-5.20661687851,1.55916380882
1607254255351249933,-8.58255958557,-5.20648431778,1.55864262581
1607254255356087923,-8.5847196579,-5.20634889603,1.55812489986
1607254255362195014,-8.58722305298,-5.20596170425,1.55855619907
1607254255366234064,-8.58947086334,-5.20580244064,1.55807495117
1607254255371290922,-8.59175777435,-5.20563840866,1.55759727955
1607254255377080917,-8.59409809113,-5.20546245575,1.55710566044
1607254255381263971,-8.59647083282,-5.20528268814,1.55662214756
1607254255389244079,-8.59888267517,-5.20509624481,1.55613839626
1607254255395951986,-8.60132884979,-5.20489549637,1.55565190315
1607254255396277904,-8.60274505615,-5.20510673523,1.5565379858
1607254255401171922,-8.60525417328,-5.20489168167,1.55608510971
1607254255410465002,-8.60778999329,-5.20466566086,1.55564391613
1607254255411178112,-8.61036968231,-5.20443201065,1.55519986153
1607254255416462898,-8.61298370361,-5.20419025421,1.55475890636
1607254255421880006,-8.61563396454,-5.20393896103,1.55432093143
1607254255442739963,-8.61697292328,-5.20456123352,1.55552923679
1607254255443124055,-8.61967754364,-5.20430469513,1.555154562
1607254255443239927,-8.62241840363,-5.20403957367,1.5547901392
1607254255454421997,-8.62519836426,-5.20377445221,1.55444562435
1607254255454796075,-8.62801742554,-5.20349597931,1.55409896374
1607254255454912900,-8.63087463379,-5.20320940018,1.55376029015
1607254255456125020,-8.63377094269,-5.20292377472,1.55343735218
1607254255463329076,-8.63565349579,-5.2039680481,1.55371415615
1607254255466244935,-8.63861465454,-5.20369720459,1.55341720581
1607254255471369981,-8.64160346985,-5.20343494415,1.55314791203
1607254255476567029,-8.64463710785,-5.2031621933,1.55288147926
1607254255481229066,-8.64770889282,-5.20288658142,1.55262768269
1607254255486171960,-8.65080356598,-5.20261859894,1.55239498615
1607254255494045019,-8.65201759338,-5.20330953598,1.55381369591
1607254255496053934,-8.65513038635,-5.20306062698,1.55365848541
1607254255501243114,-8.65827083588,-5.20284128189,1.55348241329
1607254255521327018,-8.66144371033,-5.20261335373,1.55333518982
1607254255521692991,-8.66464710236,-5.20239114761,1.55319571495
1607254255521802902,-8.66788005829,-5.20217561722,1.55306768417
1607254255522058010,-8.67109870911,-5.2020149231,1.55294156075
1607254255540041923,-8.6725320816,-5.20252895355,1.55426776409
1607254255540514945,-8.67577171326,-5.20240068436,1.55419778824
1607254255540693998,-8.67891693115,-5.20231580734,1.55425179005
1607254255548564910,-8.68212795258,-5.20223617554,1.55427324772
1607254255549045085,-8.68533802032,-5.2021780014,1.55432295799
1607254255551099061,-8.68849658966,-5.2021446228,1.55448162556
1607254255556314945,-8.69166660309,-5.20213031769,1.55465531349
1607254255562056064,-8.69277095795,-5.20371055603,1.55455303192
1607254255566484928,-8.69583034515,-5.20380401611,1.55480968952
1607254255571281909,-8.69889068604,-5.20390939713,1.55512797832
1607254255576896905,-8.70194149017,-5.20404052734,1.55549097061
1607254255581218004,-8.70499992371,-5.20421075821,1.55580508709
1607254255586239099,-8.70804023743,-5.20440530777,1.55617249012
1607254255595319032,-8.71076869965,-5.20579433441,1.55740225315
1607254255596221923,-8.7137670517,-5.20606994629,1.5577082634
1607254255601284027,-8.7167596817,-5.2063794136,1.5580470562
1607254255609941959,-8.71974277496,-5.20671701431,1.55838239193
1607254255611291885,-8.72270965576,-5.20708227158,1.5587143898
1607254255616070032,-8.72569084167,-5.20746326447,1.55899202824
1607254255621407032,-8.72865390778,-5.20787525177,1.55928385258
1607254255628721952,-8.72920227051,-5.20931243896,1.56025445461
1607254255631227970,-8.73216819763,-5.20977735519,1.56050920486
1607254255636224985,-8.73509597778,-5.21027612686,1.56076204777
1607254255655955076,-8.73802566528,-5.21079683304,1.56100010872
1607254255656411886,-8.74102115631,-5.21132659912,1.56124317646
1607254255657001018,-8.74400997162,-5.2118806839,1.5614695549
1607254255657254934,-8.74702262878,-5.21245288849,1.56168532372
1607254255671262025,-8.74927520752,-5.21577262878,1.55937993526
1607254255671574115,-8.75239086151,-5.2164273262,1.55952823162
1607254255672168970,-8.75553607941,-5.2170958519,1.55967235565
1607254255679215908,-8.75874710083,-5.21776771545,1.55986428261
1607254255681265115,-8.76199150085,-5.21845340729,1.56003892422
1607254255686144113,-8.7652797699,-5.2191491127,1.5602196455
1607254255694967031,-8.76861763,-5.21983480453,1.56044852734
1607254255695988893,-8.77306461334,-5.22171401978,1.55852138996
1607254255701451063,-8.77652645111,-5.22245693207,1.55867099762
1607254255721180915,-8.7800359726,-5.2232093811,1.55882716179
1607254255721606016,-8.78346824646,-5.22384357452,1.55920612812
1607254255721729040,-8.78702449799,-5.22456789017,1.55946218967
1607254255721973896,-8.79061412811,-5.22529268265,1.55974054337
1607254255735960006,-8.79427146912,-5.22632837296,1.56018197536
1607254255736315965,-8.79794120789,-5.22705364227,1.56051647663
1607254255736560106,-8.8016462326,-5.22777938843,1.56087112427
1607254255747684955,-8.80474376678,-5.22835302353,1.56130743027
1607254255747993946,-8.80829524994,-5.22902011871,1.56172168255
1607254255751351118,-8.81184196472,-5.22967529297,1.56216084957
1607254255756359100,-8.81530952454,-5.23029565811,1.56262409687
1607254255764352083,-8.81729602814,-5.23052978516,1.56483387947
1607254255766305923,-8.82066249847,-5.23110961914,1.56540548801
1607254255771532058,-8.82390880585,-5.23164463043,1.5659788847
1607254255777986049,-8.82716274261,-5.23216962814,1.566583395
1607254255781393051,-8.83037471771,-5.23267126083,1.56720888615
1607254255789216041,-8.83352851868,-5.23314762115,1.56780087948
1607254255796997070,-8.83533668518,-5.23369121552,1.56951284409
1607254255797314882,-8.83835411072,-5.23411989212,1.57014775276
1607254255801407098,-8.84132194519,-5.23452615738,1.57078909874
1607254255811537981,-8.84426116943,-5.23491859436,1.57135725021
1607254255811851978,-8.84714508057,-5.23528289795,1.57196211815
1607254255816384077,-8.84998416901,-5.23562526703,1.57256090641
1607254255821540117,-8.85280799866,-5.23596096039,1.57314038277
1607254255829942941,-8.85302257538,-5.23511838913,1.57777583599
1607254255831234931,-8.85572528839,-5.23539066315,1.57842457294
1607254255836395978,-8.85840606689,-5.23566675186,1.57904458046
1607254255844225883,-8.86104202271,-5.23591756821,1.57966160774
1607254255846266031,-8.86364269257,-5.23615455627,1.58026516438
1607254255851294994,-8.86622524261,-5.23639154434,1.58082318306
1607254255856290102,-8.86876964569,-5.23661327362,1.5813741684
1607254255863991975,-8.86980724335,-5.23669719696,1.58474600315
1607254255866379976,-8.87228965759,-5.23688650131,1.58524847031
1607254255871503114,-8.87473011017,-5.23707199097,1.58574461937
1607254255877650976,-8.87714004517,-5.23724460602,1.58620607853
1607254255881469011,-8.87950992584,-5.23741579056,1.58661937714
1607254255886620998,-8.88185596466,-5.23757171631,1.58700335026
1607254255908773899,-8.88174724579,-5.237865448,1.58839225769
1607254255909178018,-8.88398551941,-5.23801231384,1.58871912956
1607254255909296989,-8.88620948792,-5.23817014694,1.58899879456
1607254255920341968,-8.88840007782,-5.23830842972,1.58924484253
1607254255920759916,-8.89056396484,-5.23844003677,1.58945262432
1607254255920919895,-8.89272594452,-5.23858070374,1.58962643147
1607254255921216964,-8.89485645294,-5.23871231079,1.58976078033
1607254255934626102,-8.89696598053,-5.23884248734,1.58985733986
1607254255935129880,-8.90011501312,-5.24001216888,1.58978521824
1607254255936487913,-8.90226364136,-5.24018192291,1.58980488777
1607254255946065902,-8.90440273285,-5.24035263062,1.58978796005
1607254255946377038,-8.90655899048,-5.24052190781,1.58976066113
1607254255951364040,-8.9086971283,-5.24069309235,1.58968997002
1607254255956269979,-8.91082859039,-5.2408657074,1.58959233761
1607254255961147069,-8.91366863251,-5.24126672745,1.58886289597
1607254255966331958,-8.91582012177,-5.24144506454,1.5886849165
1607254255971972942,-8.91796779633,-5.24162387848,1.58847773075
1607254255976614952,-8.92016792297,-5.24171447754,1.58839714527
1607254255981146097,-8.92232894897,-5.24185705185,1.58819401264
1607254255986387014,-8.92449092865,-5.2419924736,1.58797359467
1607254255994163990,-8.92699813843,-5.24342393875,1.58803784847
1607254255996176004,-8.9291639328,-5.24356079102,1.5878264904
1607254256001487970,-8.93133354187,-5.24369955063,1.58759391308
1607254256021212100,-8.93350505829,-5.24382781982,1.5873490572
1607254256021527051,-8.93569469452,-5.24393844604,1.5870872736
1607254256021862030,-8.9378824234,-5.24403953552,1.58681404591
1607254256022097110,-8.940076828,-5.24412870407,1.5865278244
1607254256039664030,-8.94250869751,-5.24464416504,1.58677923679
1607254256039979934,-8.94474029541,-5.2447142601,1.58645415306
1607254256040216922,-8.94698619843,-5.24476957321,1.58611178398
1607254256046644926,-8.94924163818,-5.24481582642,1.58577132225
1607254256047019004,-8.95150852203,-5.24484872818,1.58541119099
1607254256051342010,-8.953789711,-5.24486970901,1.58503878117
1607254256056166887,-8.95852184296,-5.24495077133,1.58471083641
1607254256061521053,-8.96086597443,-5.24495220184,1.58432757854
1607254256066154003,-8.96322059631,-5.24494075775,1.58393466473
1607254256071597099,-8.96562004089,-5.2449555397,1.58364081383
1607254256076762914,-8.96801376343,-5.24493503571,1.58326721191
1607254256081443071,-8.9704208374,-5.24490499496,1.58289265633
1607254256086524009,-8.97284126282,-5.24486589432,1.58251655102
1607254256109870910,-8.97600078583,-5.24592447281,1.58424842358
1607254256110194921,-8.97844982147,-5.24590492249,1.58395969868
1607254256110434055,-8.98090648651,-5.2458782196,1.58367717266
1607254256122576951,-8.98336410522,-5.24584436417,1.58338606358
1607254256123029947,-8.9858379364,-5.24580192566,1.58310091496
1607254256123155117,-8.98831939697,-5.24575138092,1.58281815052
1607254256123261928,-8.99081325531,-5.24569606781,1.582508564
1607254256132513046,-8.99440574646,-5.24595165253,1.58493673801
1607254256132822036,-8.99695301056,-5.24588727951,1.58466911316
1607254256136393070,-8.99949550629,-5.24582338333,1.58436858654
1607254256155018091,-9.00204944611,-5.24575185776,1.58407342434
1607254256155365943,-9.0046081543,-5.24567556381,1.58376896381
1607254256155981063,-9.00716495514,-5.24559783936,1.58344995975
1607254256157042980,-9.01016235352,-5.24586820602,1.58555197716
1607254256170608997,-9.01273155212,-5.24579572678,1.58527553082
1607254256170990943,-9.0153169632,-5.24570941925,1.5849763155
1607254256171260118,-9.01790142059,-5.24562072754,1.58466088772
1607254256178724050,-9.02049064636,-5.24552631378,1.58433043957
1607254256181463956,-9.02308750153,-5.24542617798,1.58398914337
1607254256189245939,-9.02569293976,-5.24529838562,1.58363556862
1607254256194633960,-9.02945423126,-5.24604892731,1.58462965488
1607254256196151018,-9.03210353851,-5.24593734741,1.58430063725
1607254256201286077,-9.03476715088,-5.24581193924,1.58397328854
1607254256210743904,-9.03743171692,-5.24567890167,1.58362495899
1607254256211604118,-9.04010295868,-5.24553585052,1.58326303959
1607254256216222047,-9.04277610779,-5.24537944794,1.58288359642
1607254256221347093,-9.04545783997,-5.24521350861,1.5824958086
1607254256228703975,-9.04816246033,-5.24582529068,1.58237850666
1607254256231142044,-9.05086517334,-5.24566459656,1.58198702335
1607254256236562967,-9.05356502533,-5.24549245834,1.58157944679
1607254256242114067,-9.05627059937,-5.24531126022,1.58116304874
1607254256246283054,-9.0589838028,-5.24512481689,1.58072900772
1607254256251437902,-9.06170749664,-5.24492788315,1.58028841019
1607254256256242990,-9.06444263458,-5.2447218895,1.57983613014
1607254256262029886,-9.06701087952,-5.24620723724,1.58015155792
1607254256266313076,-9.06978225708,-5.24603223801,1.57969999313
1607254256271450042,-9.07256698608,-5.24584913254,1.57923722267
1607254256276657104,-9.0753660202,-5.24565792084,1.57876193523
1607254256282746076,-9.0781955719,-5.24545383453,1.5782943964
1607254256286300897,-9.08103179932,-5.24524307251,1.57780897617
1607254256294327974,-9.08388233185,-5.24502420425,1.57731854916
1607254256296437978,-9.08741474152,-5.24551868439,1.5771484375
1607254256301316976,-9.09032726288,-5.2452917099,1.57665777206
1607254256321494102,-9.09326076508,-5.24505329132,1.57615947723
1607254256321899890,-9.09623146057,-5.24479961395,1.57564115524
1607254256322062015,-9.09921836853,-5.244535923,1.57511770725
1607254256322387933,-9.10222816467,-5.24425983429,1.5745831728
1607254256334191083,-9.10565185547,-5.24471855164,1.57558012009
1607254256334553956,-9.10874652863,-5.24442720413,1.57504010201
1607254256340460062,-9.11187076569,-5.24412298203,1.5744843483
1607254256343720912,-9.11502075195,-5.24379301071,1.57392644882
1607254256346296072,-9.11819553375,-5.24345254898,1.57335162163
1607254256351389884,-9.12139511108,-5.24309635162,1.57276570797
1607254256356705904,-9.12278938293,-5.24296188354,1.57303214073
1607254256362911939,-9.1259765625,-5.24256229401,1.57248580456
1607254256366305112,-9.12918663025,-5.24214267731,1.57194077969
1607254256371345996,-9.13241863251,-5.24170207977,1.57139694691
1607254256376897096,-9.13566398621,-5.2412481308,1.57087051868
1607254256381444931,-9.13893699646,-5.24077033997,1.57034015656
1607254256386549949,-9.14223384857,-5.24027252197,1.5698132515
1607254256393899917,-9.14297008514,-5.23983573914,1.57123696804
1607254256396337985,-9.14625358582,-5.23930931091,1.5707706213
1607254256401297092,-9.149559021,-5.23876476288,1.57031106949
1607254256409769058,-9.15287685394,-5.2381978035,1.56988489628
1607254256411478042,-9.15621948242,-5.23761415482,1.56945610046
1607254256416553974,-9.15958023071,-5.23701238632,1.569039464
1607254256421444892,-9.16293334961,-5.23639583588,1.56865203381
1607254256428100109,-9.16600799561,-5.23577308655,1.57003188133
1607254256431313991,-9.1693983078,-5.23511362076,1.56970775127
1607254256436450958,-9.17280578613,-5.23446464539,1.56934058666
1607254256442040920,-9.17622756958,-5.23378801346,1.56900763512
1607254256446593999,-9.17967033386,-5.23309707642,1.56867861748
1607254256451725959,-9.18311882019,-5.23240804672,1.56834256649
1607254256456614971,-9.18708515167,-5.23278427124,1.56958770752
1607254256462785005,-9.19056797028,-5.23210954666,1.56929969788
1607254256466341018,-9.19406318665,-5.23142623901,1.569008708
1607254256471534013,-9.19745635986,-5.23069810867,1.56888604164
1607254256476758003,-9.20090389252,-5.22997760773,1.56869506836
1607254256481472969,-9.20434379578,-5.2292432785,1.56853163242
1607254256486591100,-9.20772266388,-5.2284989357,1.56846725941
1607254256495830059,-9.21041107178,-5.22942113876,1.56799006462
1607254256496810913,-9.21370983124,-5.22869157791,1.56801331043
1607254256501559972,-9.21701145172,-5.22799634933,1.56805717945
